# v0 = 208.0, angle = 43.0
# time = 6.46875
0.0 3.0
2.370490249231107 5.207269025677388
4.725717101811435 7.392534025127573
7.065900734042087 9.556049612766326
9.39125676078533 11.698065047628456
11.70199635997951 13.818824379262303
13.998326392916159 15.918566588667694
16.280449520450894 17.997525724478233
18.548564315311655 20.055931034579395
20.80286537066021 22.094007093344985
23.043543405055605 24.11197392466604
25.27078536396139 26.11004712093824
27.484774517932035 28.08843795816632
29.68569055760766 30.047353507336766
31.873709685640534 31.986996742203257
34.04900470567114 33.90756664362284
36.21174510846637 35.8092583005747
38.362097155327554 37.6922630079874
40.500223958871075 39.55676836149532
42.626285561279964 41.40295834923917
44.740439010120646 43.231013440821016
46.84283843181476 45.04111067351913
48.933635102852286 46.83342373586365
51.012977518828436 48.60812304866959
53.08101146138331 50.36537584361981
55.13788006311996 52.10534623948648
57.183723870573374 53.828195316076034
59.21868090529983 55.53408118597893
61.24288672315323 57.22315906420225
63.25647447181224 58.89558133576003
65.25957494661952 60.55149762129289
67.25231664479172 62.19105484078602
69.2348258180567 63.81439727545142
71.20722652377205 65.42166662783781
73.16964067457673 67.01300208022921
75.12218808662594 68.58854035139052
77.06498652645698 70.14841575171623
78.99815175653202 71.69276023683636
80.92179757950232 73.22170345973136
82.83603588123599 74.73537282140575
84.74097667265052 76.23389352016854
86.63672813038919 77.71738859956645
88.52339663637909 79.18597899501418
90.40108681630733 80.63978357916449
92.26990157705008 82.07891920605894
94.12994214308848 83.50350075409898
95.98130809194353 84.91364116787524
97.82409738866123 86.30945149889169
99.65840641937814 87.69104094521995
101.48433002399612 89.05851689011762
103.30196152799422 90.4119849396434
105.11139277340457 91.75154895930062
106.91271414897814 93.07731110973933
108.70601461956532 94.38937188154652
110.49138175473543 95.68783012915263
112.26890175665827 96.97278310388138
114.0386594872702 98.24432648616967
115.80073849474621 99.50255441698238
117.555221039299 100.74755952844703
119.30218811832486 101.97943297373155
121.04171949091617 103.19826445618814
122.77389370175878 104.40414225778527
124.49878810443288 105.59715326684898
126.2164788841343 106.77738300513407
127.92704107983354 107.94491565424507
129.63054860588858 109.09983408142604
131.3270742731273 110.2422198647379
133.01668980941474 111.37215331764105
134.69946587972007 112.48971351300068
136.37547210569696 113.59497830653154
138.04477708479192 114.68802435969825
139.7074484088932 115.76892716208694
141.36355268253354 116.83776105326332
143.01315554065894 117.89459924413187
144.65632166597587 118.93951383781022
146.2931148058881 119.97257585003275
147.92359778903491 120.99385522909633
149.54783254144124 122.00342087536133
151.16588010229057 123.0013406603204
152.7778006393307 123.98768144524685
154.3836534639224 124.96250909943463
155.98349704574048 125.92588851804095
157.57738902713663 126.87788363954286
159.16538623717315 127.81855746281808
160.7475447053361 128.74797206386066
162.3239196749366 129.6661886121414
163.8945656162083 130.57326738662272
165.45953623910918 131.46926779143726
167.0188845058353 132.35424837123963
168.572662643054 133.22826682623995
170.12092215386394 134.09138002692765
171.6637138294889 134.94364402849433
173.20108776071228 135.7851140849631
174.7330933490591 136.61584466303287
176.2597793177315 137.4358894556448
177.78119372230475 138.2453013952785
179.29738396118913 139.04413266698504
180.80839678586403 139.83243472116393
182.31427831089002 140.61025828609058
183.81507402370417 141.37765338020105
185.31082879420455 142.13466932414033
186.8015868841287 142.88135475258042
188.28739195623146 143.61775762581433
189.7682870832672 144.3439252411316
191.24431475678125 145.0599042439813
192.71551689571498 145.76574063892798
194.18193485482982 146.46147980040584
195.64360943295384 147.14716648327644
197.100580881056 147.82284483319512
198.55288891015175 148.48855839679084
200.00057269904445 149.1443501316645
201.44367090190661 149.79026241621028
202.88222165570457 150.42633705926448
204.3162625874709 151.0526153095866
205.7458308214278 151.66913786517645
207.1709629859655 152.275944882432
208.5916952204788 152.87307598515162
210.00806318206568 153.46057027338506
211.4201020520908 154.03846633213658
212.8278465426178 154.60680223992435
214.2313309027128 155.1656155771996
215.63058892462314 155.71494343462896
217.02565394983355 156.25482242124392
218.4165588750034 156.78528867245993
219.80333615778747 157.30637785796924
221.18601782254333 157.81812518951017
222.56463546592806 158.32056542851603
223.9392202623869 158.81373289364677
225.30980296953666 159.297661468206
226.6764139334463 159.77238460744678
228.03908309381734 160.2379353457682
229.3978399890665 160.6943463038061
230.7527137613131 161.1416496954202
232.10373316127317 161.57987733458023
233.45092655306345 162.00906064215349
234.7943219189165 162.4292306525965
236.13394686380985 162.84041802055256
237.4698286200112 163.24265302735824
238.80199405154164 163.63596558746005
240.13046965855898 164.02038525474433
241.4552815816636 164.39594122878188
242.7764556061282 164.76266236098954
244.0940171660539 165.12057716071058
245.4079913484545 165.46971380121602
246.7184028972704 165.81010012562834
248.0252762173148 166.14176365276975
249.32863537815288 166.46473158293657
250.62850411791695 166.77903080360127
251.9249058470583 167.0846878950441
253.217863652038 167.38172913591563
254.50740029895806 167.67018050873176
255.79353823713473 167.95006770530276
257.07629960261545 168.2214161320977
258.35570622164096 168.4842509155457
259.6317796140544 168.73859690727514
260.9045409966583 168.98447868929244
262.1740112865217 169.22192057910124
263.44021110423836 169.4509466347635
264.70316077713727 169.67158065990358
265.96288034244753 169.88384620865625
267.2193895504185 170.08776659055985
268.4727078673965 170.28336487539562
269.72285447885946 170.47066389797408
270.9698482924113 170.6496862628694
272.2137079407361 170.82045434910285
273.4544517845147 170.98299031477578
274.6920979153035 171.13731610165354
275.92666415837846 171.28345343970048
277.15816807554313 171.42142385156737
278.386626967904 171.5512486570314
279.61205787861303 171.67294897738998
280.83447759557845 171.7865457398084
282.0539026541457 171.89205968162258
283.2703493397487 171.98951135459703
284.4838336905327 172.07892112913856
285.6943714999501 172.16030919846676
286.90197831932926 172.23369558274095
288.1066694604185 172.29910013314483
289.3084599979049 172.3565425359286
290.50736477190964 172.40604231640953
291.70339839046056 172.44761884293067
292.8965752319425 172.48129133077887
294.0869094475265 172.50707884606166
295.27441496357864 172.5250003095436
296.45910548404885 172.5350745004425
297.64099449284146 172.53732006018555
298.8200952561668 172.53175549612556
299.99642082487554 172.51839918521767
301.1699840367765 172.49726937765655
302.3407975189377 172.4683842004743
303.50887368997195 172.43176166109922
304.6742247623078 172.38741965087547
305.8368627444456 172.33537594854383
306.9967994432 172.2756482236835
308.1540464659288 172.2082540401153
309.3086152227493 172.1332108592657
310.4605169287422 172.05053604349254
311.60976260614325 171.96024685937184
312.75636308652406 171.8623604809458
313.9003290129614 171.75689399293225
315.0416708421961 171.6438643938954
316.1803988467816 171.5232885993776
317.3165231172226 171.39518344499248
318.4500535641041 171.25956568947933
319.5809999202114 171.1164520177183
320.70937174264077 170.96585904370696
321.83517841490163 170.80780331349754
322.9584291490103 170.64230130809543
324.0791329875756 170.4693694463181
325.1972988058759 170.28902408761516
326.3129353139293 170.10128153484885
327.42605105855523 169.90615803703523
328.5366544254292 169.70366979204573
329.6447536411299 169.49383294926938
330.750356775179 169.276663612235
331.85347174207413 169.05217784119412
332.95410630331446 168.82039165566349
334.0522680694196 168.58132103692813
335.1479645019414 168.33498193050423
336.24120291546876 168.08139024856186
337.331990479626 167.82056187230774
338.4203342210636 167.5525126543276
339.5062410254432 167.27725842088842
340.5897176394145 166.9948149742003
341.670770672586 166.7051980946379
342.7494065994886 166.4084235429215
343.8256317615322 166.10450706225765
344.8994523689549 165.79346438043927
345.97087450276564 165.47531121190525
347.0399041166789 165.15006325975963
348.1065470390424 164.8177362177502
349.17080897475756 164.47834577220652
350.2326955071916 164.1319076039377
351.29221210008257 163.77843739008938
352.3493640994365 163.41795080596066
353.4041567354162 163.05046352678028
354.4565951242221 162.6759912294428
355.5066842699646 162.2945495942043
356.5544290665285 161.9061543063382
357.59983429942804 161.5108210577506
358.64290464765367 161.108565548556
359.6836446855094 160.69940348861292
360.72205888444165 160.28335059902005
361.7581516148579 159.8604226135725
362.7919271479365 159.4306352801787
363.82338965742633 158.99400436223814
364.8525432214368 158.55054563997982
365.8793918242176 158.1002749117618
366.90393935792804 157.64320799533198
367.92618962439644 157.1793607290504
368.94614633686797 156.70874897307306
369.96381312174236 156.2313886104978
370.97919352030016 155.7472955484721
371.99229099041787 155.25648571926348
373.0031089082715 154.7589750812923
374.0116505700285 154.25477962012755
375.0179191935281 153.7439153494458
376.0219179199492 153.22639831195363
377.0236498154665 152.70224458027369
378.02311787289386 152.17147025779488
379.0203250133153 151.63409147948695
380.0152740877034 151.09012441267967
381.00796787852454 150.5395852578071
381.9984091013311 149.9824902491171
382.9866004063407 149.41885565534665
383.9725443800017 148.84869778036324
384.9562435465453 148.2720329637725
385.9377003695241 147.6888775814928
386.9169172533367 147.09924804629688
387.89389654473814 146.50316080832113
388.8686405343366 145.90063235554265
389.8411514580755 145.2916792142248
390.81143149870167 144.67631794933138
391.7794827872185 144.05456516490977
392.74530740432505 143.42643750444398
393.70890738183994 142.79195165117733
394.6702847041108 142.15112432840556
395.6294413094089 141.50397229974087
396.5863790913082 140.85051236934692
397.54109990004997 140.19076138214575
398.493605543892 139.52473622399657
399.4438977904425 138.8524538218471
400.39197836797894 138.1739311438579
401.33784896675104 137.48918519950018
402.28151124026897 136.79823303962706
403.2229668065756 136.10109175651962
404.1622172495035 135.3977784839073
405.0992641199162 134.68831039696354
406.03410893693393 133.97270471227716
406.96675318914384 133.2509786877996
407.89719833579437 132.5231496227688
408.82544580797395 131.78923485761
409.7514970097743 131.04925177381392
410.67535331943776 130.30321779379275
411.597016090489 129.55115038071457
412.5164866528509 128.7930670383164
413.4337663139452 128.0289853106964
414.34885635977696 127.25892278208588
415.2617580560033 126.48289707660109
416.1724726489873 125.7009258579759
417.08100136683527 124.91302682927508
417.98734542041893 124.11921773258922
418.8915060043822 123.31951634871132
419.7934842981321 122.51394049679574
420.69328146681437 121.70250803399983
421.59089866227356 120.88523685510862
422.48633702399786 120.0621448921431
423.37959768004856 119.23325011395247
424.2706817479742 118.39857052579079
425.1595903357095 117.55812416887841
426.04632454245916 116.7119291199486
426.9308854595668 115.8600034907799
427.81327417136845 115.0023654277144
428.6934917560315 114.13903311116249
429.5715392863787 113.27002475509454
430.44741783069725 112.39535860651968
431.32112845353333 111.5150529449523
432.1926722164721 110.62912608186653
433.06205017890295 109.73759636013915
433.92926339877056 108.84048215348122
434.7943129333116 107.93780186585897
435.657199839777 107.0295739309041
436.5179251761404 106.11581681131412
437.3764900017923 105.19654899824276
438.23289537822046 104.27178901068122
439.0871423696763 103.34155539483022
439.9392320438278 102.4058667234635
440.7891654723987 101.4647415952829
441.63694373179396 100.51819863426549
442.4825679037125 99.5662564890031
443.3260390757458 98.60893383203445
444.1673583419641 97.64624935917037
445.00652680348895 96.6782217888123
445.8435455690534 95.70486986126444
446.67841575554894 94.72621233803999
447.51113848856 93.74226800116145
448.34171490288577 92.75305565245576
449.17014614304964 91.75859411284411
449.9964333637964 90.75890222162705
450.8205777305771 89.75399883576509
451.6425804200217 88.7439028291549
452.4624426204004 87.72863309190181
453.2801655320722 86.70820852958839
454.0957503679228 85.68264806253974
454.90919835379003 84.65197062508565
455.7205107288785 83.61619516481984
456.52968874616244 82.57534064185661
457.33673367277777 81.5294260280851
458.141646790403 80.47847030642149
458.94442939562884 79.4224924700593
459.7450828003177 78.36151152171807
460.54360833195176 77.29554647289069
461.34000733397124 76.22461634308951
462.13428116610163 75.14874015909156
462.926431204671 74.06793695418311
463.7164588429171 72.98222576740369
464.5043654912844 71.89162564278983
465.29015257771107 70.79615562861883
466.0738215479067 69.69583477665259
466.85537386561964 68.59068214138182
467.63481101289557 67.48071677927086
468.41213449032614 66.36595774800315
469.18734581728864 65.24642410572768
469.96044653217643 64.12213491030658
470.73143819262043 62.99310921856399
471.50032237570167 61.85936608553639
472.2671006781552 60.72092456372464
473.03177471656517 59.577803702347786
473.79434612755165 58.4300225465989
474.5548165679489 57.27760013690302
475.3131877149754 56.12055550817746
476.069461266396 54.958907689094545
476.8236389406756 53.79267570134697
477.57572247712534 52.62187855891594
478.3257136360409 51.446535267342156
479.07361419883307 50.26666482299995
479.8194259681509 49.0822862123745
480.56315076799734 47.893418411342395
481.30479044383793 46.700080384455674
482.0443468627016 45.50229108422939
482.7818219132753 44.30006945043288
483.51721750599086 43.09343440938486
484.25053557310576 41.88240487325242
484.98177806877675 40.66699973935407
485.7109469691269 39.44723788946693
486.4380442723063 38.2231381891382
487.16307199854623 36.994719487000886
487.8860321902074 35.762000614094134
488.60692691182163 34.52500038318799
489.3257582501277 33.28373758811282
490.0425283141013 32.03823100309356
490.7572392349789 30.78849938208864
491.4698931662764 29.534561458133947
492.1804922838016 28.276435942691673
492.8890387856615 27.014141525004305
493.59553489226425 25.7476968714537
494.29998284631534 24.47712062492542
495.0023849128092 23.20243140417831
495.7027433790153 21.923647803219463
496.4010605544594 20.64078839068458
497.0973387708996 19.35387170922382
497.7915803822984 18.06291627489319
498.4837877647888 16.76794057655152
499.1739633166371 15.468963075263106
499.8621094582002 14.16600220370605
500.5482286318789 12.85907636558635
501.23232330206685 11.5482039350578
501.91439595509536 10.233403256147724
502.5944490991737 8.914692642188623
503.2724852643258 7.59209037525572
503.9485070023226 6.265614705610506
504.62251688661075 4.935283851150272
505.2945175122376 3.601115996863685
505.96451149577206 2.2631292942924386
506.63250147522234 0.9213418609990027
